Time(s),Input,Output_Displacement
9.69999999999998,0.515,6.265
9.79999999999998,0.447,6.209
9.89999999999998,0.382,6.151
9.99999999999998,0.321,6.091
10.1,0.264,6.030
10.2,0.213,5.967
10.3,0.166,5.902
10.4,0.124,5.838
10.5,0.089,5.773
10.6,0.059,5.709
10.7,0.035,5.645
10.8,0.017,5.582
10.9,0.005,5.521
11,0.000,5.462
11.1,0.002,5.405
11.2,0.009,5.350
11.3,0.023,5.299
11.4,0.043,5.251
11.5,0.070,5.207
11.6,0.102,5.166
11.7,0.140,5.130
11.8,0.184,5.098
11.9,0.232,5.071
12,0.286,5.048
12.1,0.344,5.031
12.2,0.407,5.018
12.3,0.473,5.011
12.4,0.543,5.008
12.5,0.615,5.011
12.6,0.690,5.019
12.7,0.767,5.032
12.8,0.846,5.051
12.9,0.925,5.074
13,1.005,5.102
13.1,1.085,5.134
13.2,1.164,5.171
13.3,1.243,5.212
13.4,1.319,5.257
13.5,1.394,5.305
13.6,1.466,5.357
13.7,1.535,5.411
13.8,1.601,5.469
13.9,1.663,5.528
14,1.721,5.589
14.1,1.774,5.652
14.2,1.822,5.716
14.3,1.865,5.781
14.4,1.902,5.845
14.5,1.934,5.910
14.6,1.959,5.974
14.7,1.979,6.037
14.8,1.992,6.099
14.9,1.999,6.158
15,1.999,6.216
15.1,1.993,6.271
15.2,1.981,6.323
15.3,1.963,6.372
15.4,1.938,6.418
15.5,1.907,6.459
15.6,1.871,6.497
15.7,1.829,6.530
15.8,1.781,6.558
15.9,1.729,6.582
16,1.672,6.601
16.1,1.610,6.615
16.2,1.545,6.624
16.3,1.476,6.628
16.4,1.405,6.626
16.5,1.330,6.619
16.6,1.254,6.608
16.7,1.176,6.591
16.8,1.096,6.569
16.9,1.017,6.542
17,0.937,6.511
17.1,0.857,6.476
17.2,0.778,6.436
17.3,0.701,6.392
17.4,0.626,6.344
17.5,0.553,6.294
17.6,0.483,6.240
17.7,0.416,6.183
17.8,0.353,6.124
17.9,0.294,6.063
18,0.240,6.001
18.1,0.190,5.937
18.2,0.146,5.873
18.3,0.107,5.808
18.4,0.074,5.743
18.5,0.047,5.679
18.6,0.026,5.616
18.7,0.011,5.554
18.8,0.002,5.494
18.9,0.000,5.435
19,0.004,5.379
19.1,0.015,5.326
19.2,0.032,5.277
19.3,0.055,5.230
19.4,0.084,5.188
19.5,0.119,5.149
19.6,0.159,5.115
19.7,0.205,5.085
19.8,0.257,5.060
19.9,0.312,5.039
20,0.373,5.024
20.1,0.437,5.014
20.2,0.505,5.009
20.3,0.576,5.009
20.4,0.649,5.014
20.5,0.725,5.025
20.6,0.803,5.040
20.7,0.882,5.061
20.8,0.962,5.086
20.9,1.042,5.116
21,1.121,5.150
21.1,1.200,5.189
21.2,1.278,5.232
21.3,1.354,5.278
21.4,1.428,5.328
21.5,1.498,5.382
21.6,1.566,5.437
21.7,1.630,5.496
21.8,1.690,5.556
21.9,1.746,5.618
22,1.797,5.682
22.1,1.842,5.746
22.2,1.883,5.810
22.3,1.918,5.875
22.4,1.946,5.940
22.5,1.969,6.003
22.6000000000001,1.986,6.066
22.7000000000001,1.996,6.126
22.8000000000001,2.000,6.185
22.9000000000001,1.997,6.242
23.0000000000001,1.989,6.296
23.1000000000001,1.973,6.346
23.2000000000001,1.952,6.394
23.3000000000001,1.925,6.437
23.4000000000001,1.891,6.477
23.5000000000001,1.852,6.512
23.6000000000001,1.807,6.544
23.7000000000001,1.758,6.570
23.8000000000001,1.703,6.592
23.9000000000001,1.644,6.608
24.0000000000001,1.581,6.620
24.1000000000001,1.514,6.626
24.2000000000001,1.444,6.628
24.3000000000001,1.371,6.624
24.4000000000001,1.295,6.615
24.5000000000001,1.218,6.601
24.6000000000001,1.139,6.581
24.7000000000001,1.060,6.557
24.8000000000001,0.980,6.529
24.9000000000001,0.900,6.495
25.0000000000001,0.821,6.458
25.1000000000001,0.743,6.416
25.2000000000001,0.666,6.370
25.3000000000001,0.592,6.321
25.4000000000001,0.520,6.269
25.5000000000001,0.452,6.214
25.6000000000001,0.387,6.156
25.7000000000001,0.326,6.096
25.8000000000001,0.269,6.035
25.9000000000001,0.217,5.972
26.0000000000001,0.169,5.908
26.1000000000001,0.128,5.843
26.2000000000001,0.091,5.778
26.3000000000001,0.061,5.714
26.4000000000001,0.036,5.650
26.5000000000001,0.018,5.587
26.6000000000001,0.006,5.526
26.7000000000001,0.000,5.466
26.8000000000001,0.001,5.409
26.9000000000001,0.008,5.355
27.0000000000001,0.022,5.303
27.1000000000001,0.042,5.255
27.2000000000001,0.067,5.210
27.3000000000001,0.099,5.169
27.4000000000001,0.137,5.133
27.5000000000001,0.180,5.100
27.6000000000001,0.228,5.073
27.7000000000001,0.282,5.050
27.8000000000001,0.340,5.032
27.9000000000001,0.402,5.019
28.0000000000001,0.468,5.011
28.1000000000001,0.537,5.008
28.2000000000001,0.609,5.011
28.3000000000001,0.684,5.018
28.4000000000001,0.761,5.031
28.5000000000001,0.839,5.049
28.6000000000001,0.919,5.072
28.7000000000001,0.999,5.099
28.8000000000001,1.079,5.131
28.9000000000001,1.158,5.168
29.0000000000001,1.236,5.208
29.1000000000001,1.313,5.253
29.2000000000001,1.388,5.301
29.3000000000001,1.461,5.352
29.4000000000001,1.530,5.407
29.5000000000001,1.596,5.464
29.6000000000002,1.658,5.523
29.7000000000002,1.716,5.585
29.8000000000002,1.770,5.647
29.9000000000002,1.818,5.711
30.0000000000002,1.862,5.776
30.1000000000002,1.899,5.840
30.2000000000002,1.932,5.905
30.3000000000002,1.958,5.969
30.4000000000002,1.978,6.032
30.5000000000002,1.991,6.094
30.6000000000002,1.999,6.154
30.7000000000002,2.000,6.212
30.8000000000002,1.994,6.267
30.9000000000002,1.982,6.319
31.0000000000002,1.964,6.368
31.1000000000002,1.940,6.414
31.2000000000002,1.910,6.456
31.3000000000002,1.874,6.494
31.4000000000002,1.832,6.527
31.5000000000002,1.785,6.556
31.6000000000002,1.733,6.581
31.7000000000002,1.677,6.600
31.8000000000002,1.615,6.614
31.9000000000002,1.551,6.623
32.0000000000002,1.482,6.628
32.1000000000002,1.410,6.626
32.2000000000002,1.336,6.620
32.3000000000002,1.260,6.609
32.4000000000002,1.182,6.592
32.5000000000002,1.103,6.571
32.6000000000002,1.023,6.545
32.7000000000002,0.943,6.514
32.8000000000002,0.863,6.479
32.9000000000002,0.785,6.439
33.0000000000002,0.707,6.396
33.1000000000002,0.632,6.348
33.2000000000002,0.559,6.298
33.3000000000002,0.488,6.244
33.4000000000002,0.421,6.188
33.5000000000002,0.358,6.129
33.6000000000002,0.299,6.068
33.7000000000002,0.244,6.006
33.8000000000002,0.194,5.942
33.9000000000002,0.149,5.878
34.0000000000002,0.110,5.813
34.1000000000002,0.077,5.748
34.2000000000002,0.049,5.684
34.3000000000002,0.027,5.621
34.4000000000002,0.012,5.559
34.5000000000002,0.003,5.498
34.6000000000002,0.000,5.440
34.7000000000002,0.004,5.384
34.8000000000002,0.014,5.331
34.9000000000002,0.030,5.280
35.0000000000002,0.053,5.234
35.1000000000002,0.081,5.191
35.2000000000002,0.116,5.152
35.3000000000002,0.156,5.117
35.4000000000002,0.202,5.087
35.5000000000002,0.252,5.062
35.6000000000002,0.308,5.041
35.7000000000002,0.368,5.025
35.8000000000002,0.432,5.015
35.9000000000002,0.499,5.009
36.0000000000002,0.570,5.009
36.1000000000002,0.643,5.014
36.2000000000002,0.719,5.024
36.3000000000002,0.797,5.039
36.4000000000002,0.876,5.059
36.5000000000002,0.955,5.084
36.6000000000003,1.035,5.113
36.7000000000003,1.115,5.147
36.8000000000003,1.194,5.186
36.9000000000003,1.272,5.228
37.0000000000003,1.348,5.275
37.1000000000003,1.422,5.324
37.2000000000003,1.493,5.377
37.3000000000003,1.561,5.433
37.4000000000003,1.625,5.491
37.5000000000003,1.686,5.551
37.6000000000003,1.742,5.613
37.7000000000003,1.793,5.677
37.8000000000003,1.839,5.741
37.9000000000003,1.880,5.805
38.0000000000003,1.915,5.870
38.1000000000003,1.944,5.934
38.2000000000003,1.968,5.998
38.3000000000003,1.985,6.061
38.4000000000003,1.995,6.122
38.5000000000003,2.000,6.181
38.6000000000003,1.998,6.237
38.7000000000003,1.990,6.291
38.8000000000003,1.975,6.342
38.9000000000003,1.954,6.390
39.0000000000003,1.927,6.434
39.1000000000003,1.894,6.474
39.2000000000003,1.855,6.510
39.3000000000003,1.811,6.541
39.4000000000003,1.762,6.568
39.5000000000003,1.708,6.590
39.6000000000003,1.649,6.607
39.7000000000003,1.586,6.619
39.8000000000003,1.519,6.626
39.9000000000003,1.449,6.628
40.0000000000003,1.377,6.624
40.1000000000003,1.301,6.616
40.2000000000003,1.224,6.602
40.3000000000003,1.146,6.583
40.4000000000003,1.066,6.559
40.5000000000003,0.986,6.531
40.6000000000003,0.906,6.498
40.7000000000003,0.827,6.461
40.8000000000003,0.749,6.419
40.9000000000003,0.672,6.374
41.0000000000003,0.598,6.325
41.1000000000003,0.526,6.273
41.2000000000003,0.457,6.218
41.3000000000003,0.392,6.161
41.4000000000003,0.330,6.101
41.5000000000003,0.273,6.040
41.6000000000003,0.221,5.977
41.7000000000003,0.173,5.913
41.8000000000003,0.131,5.848
41.9000000000003,0.094,5.783
42.0000000000003,0.063,5.719
42.1000000000003,0.038,5.655
42.2000000000003,0.019,5.592
42.3000000000003,0.007,5.531
42.4000000000003,0.001,5.471
42.5000000000003,0.001,5.414
42.6000000000003,0.008,5.359
42.7000000000003,0.021,5.307
42.8000000000003,0.040,5.259
42.9000000000003,0.065,5.214
43.0000000000003,0.097,5.172
43.1000000000003,0.134,5.135
43.2000000000003,0.176,5.103
43.3000000000003,0.224,5.075
43.4000000000003,0.277,5.051
43.5000000000003,0.335,5.033
43.6000000000003,0.397,5.020
43.7000000000004,0.462,5.011
43.8000000000004,0.531,5.008
43.9000000000004,0.603,5.010
44.0000000000004,0.678,5.018
44.1000000000004,0.755,5.030
44.2000000000004,0.833,5.047
44.3000000000004,0.912,5.070
44.4000000000004,0.992,5.097
44.5000000000004,1.072,5.129
44.6000000000004,1.152,5.165
44.7000000000004,1.230,5.205
44.8000000000004,1.307,5.249
44.9000000000004,1.382,5.297
45.0000000000004,1.455,5.348
45.1000000000004,1.525,5.402
45.2000000000004,1.591,5.459
45.3000000000004,1.654,5.519
45.4000000000004,1.712,5.580
45.5000000000004,1.766,5.642
45.6000000000004,1.815,5.706
45.7000000000004,1.858,5.770
45.8000000000004,1.897,5.835
45.9000000000004,1.929,5.900
46.0000000000004,1.956,5.964
46.1000000000004,1.976,6.027
46.2000000000004,1.990,6.089
46.3000000000004,1.998,6.149
46.4000000000004,2.000,6.207
46.5000000000004,1.995,6.263
46.6000000000004,1.984,6.315
46.7000000000004,1.966,6.365
46.8000000000004,1.942,6.411
46.9000000000004,1.913,6.453
47.0000000000004,1.877,6.491
47.1000000000004,1.836,6.525
47.2000000000004,1.789,6.554
47.3000000000004,1.738,6.579
47.4000000000004,1.681,6.598
47.5000000000004,1.620,6.613
47.6000000000004,1.556,6.623
47.7000000000004,1.488,6.627
47.8000000000004,1.416,6.627
47.9000000000004,1.342,6.621
48.0000000000004,1.266,6.610
48.1000000000004,1.188,6.594
48.2000000000004,1.109,6.573
48.3000000000004,1.029,6.547
48.4000000000004,0.949,6.516
48.5000000000004,0.870,6.482
48.6000000000004,0.791,6.442
48.7000000000004,0.713,6.399
48.8000000000004,0.638,6.352
48.9000000000004,0.564,6.302
49.0000000000004,0.494,6.248
49.1000000000004,0.427,6.192
49.2000000000004,0.363,6.134
49.3000000000004,0.303,6.073
49.4000000000004,0.248,6.011
49.5000000000004,0.198,5.947
49.6000000000004,0.153,5.883
49.7000000000004,0.113,5.818
49.8000000000004,0.079,5.754
49.9000000000004,0.051,5.689
50.0000000000004,0.029,5.626
50.1000000000004,0.013,5.564
50.2000000000004,0.003,5.503
50.3000000000004,0.000,5.444
50.4000000000004,0.003,5.388
50.5000000000004,0.013,5.335
50.6000000000004,0.029,5.284
50.7000000000005,0.051,5.237
50.8000000000005,0.079,5.194
50.9000000000005,0.113,5.155
51.0000000000005,0.153,5.120
51.1000000000005,0.198,5.089
51.2000000000005,0.248,5.063
51.3000000000005,0.303,5.042
51.4000000000005,0.363,5.026
51.5000000000005,0.426,5.015
51.6000000000005,0.494,5.009
51.7000000000005,0.564,5.009
51.8000000000005,0.637,5.013
51.9000000000005,0.713,5.023
52.0000000000005,0.791,5.037
52.1000000000005,0.869,5.057
52.2000000000005,0.949,5.082
52.3000000000005,1.029,5.111
52.4000000000005,1.109,5.145
52.5000000000005,1.188,5.183
52.6000000000005,1.266,5.225
52.7000000000005,1.342,5.271
52.8000000000005,1.416,5.320
52.9000000000005,1.487,5.373
53.0000000000005,1.556,5.428
53.1000000000005,1.620,5.486
53.2000000000005,1.681,5.546
53.3000000000005,1.737,5.608
53.4000000000005,1.789,5.671
53.5000000000005,1.835,5.736
53.6000000000005,1.877,5.800
53.7000000000005,1.912,5.865
53.8000000000005,1.942,5.929
53.9000000000005,1.966,5.993
54.0000000000005,1.984,6.056
54.1000000000005,1.995,6.117
54.2000000000005,2.000,6.176
54.3000000000005,1.998,6.233
54.4000000000005,1.990,6.287
54.5000000000005,1.976,6.338
54.6000000000005,1.956,6.386
54.7000000000005,1.929,6.431
54.8000000000005,1.897,6.471
54.9000000000005,1.859,6.507
55.0000000000005,1.815,6.539
55.1000000000005,1.766,6.566
55.2000000000005,1.712,6.588
55.3000000000005,1.654,6.606
55.4000000000005,1.591,6.618
55.5000000000005,1.525,6.626
55.6000000000005,1.455,6.628
55.7000000000005,1.383,6.625
55.8000000000005,1.307,6.616
55.9000000000005,1.230,6.603
56.0000000000005,1.152,6.585
56.1000000000005,1.072,6.562
56.2000000000005,0.993,6.534
56.3000000000005,0.913,6.501
56.4000000000005,0.833,6.464
56.5000000000005,0.755,6.423
56.6000000000005,0.678,6.378
56.7000000000005,0.604,6.329
56.8000000000005,0.532,6.278
56.9000000000005,0.463,6.223
57.0000000000005,0.397,6.166
57.1000000000005,0.335,6.106
57.2000000000005,0.277,6.045
57.3000000000005,0.225,5.982
57.4000000000005,0.177,5.918
57.5000000000005,0.134,5.853
57.6000000000005,0.097,5.789
57.7000000000005,0.065,5.724
57.8000000000006,0.040,5.660
57.9000000000006,0.021,5.597
58.0000000000006,0.008,5.535
